Sample:	
Run Date:	11-03-2020 16:52:36
Operator:	Hitachi spectro
Comment:	

Instrument
Model:	U-2010 Spectrophotometer
Serial Number:	9709-014
ROM Version:	2550 00

Instrument Parameters
Measurement Type:	Wavelength Scan
Data Mode:	Abs
Starting Wavelength:	900.0 nm
Ending Wavelength:	200.0 nm
Scan Speed:	100 nm/min
Sampling Interval:	1.0 nm
Slit Width:	2 nm
Lamp Change:	370.0 nm
Baseline Correction:	System
Response:	Medium

Peak Integration
Area Method:	Rectangular
Threshold:	10.0% based on 1 highest peaks
Peak Width:	10.0 nm
Peaks
Peak #	Start (nm)	Apex (nm)	End (nm)	Height (Abs)	Area (Abs*nm)
1	299.0	236.0	217.0	2.5800	51.5765

Data Points
nm	Abs
900.0	0.0020
899.0	0.0066
898.0	0.0128
897.0	0.0181
896.0	0.0220
895.0	0.0254
894.0	0.0295
893.0	0.0340
892.0	0.0374
891.0	0.0382
890.0	0.0365
889.0	0.0335
888.0	0.0304
887.0	0.0277
886.0	0.0255
885.0	0.0240
884.0	0.0229
883.0	0.0217
882.0	0.0206
881.0	0.0195
880.0	0.0185
879.0	0.0175
878.0	0.0169
877.0	0.0166
876.0	0.0164
875.0	0.0166
874.0	0.0169
873.0	0.0173
872.0	0.0176
871.0	0.0180
870.0	0.0182
869.0	0.0182
868.0	0.0183
867.0	0.0185
866.0	0.0189
865.0	0.0192
864.0	0.0194
863.0	0.0195
862.0	0.0195
861.0	0.0195
860.0	0.0194
859.0	0.0194
858.0	0.0194
857.0	0.0192
856.0	0.0191
855.0	0.0191
854.0	0.0191
853.0	0.0191
852.0	0.0189
851.0	0.0186
850.0	0.0185
849.0	0.0185
848.0	0.0185
847.0	0.0184
846.0	0.0185
845.0	0.0185
844.0	0.0185
843.0	0.0185
842.0	0.0185
841.0	0.0185
840.0	0.0185
839.0	0.0184
838.0	0.0184
837.0	0.0183
836.0	0.0182
835.0	0.0182
834.0	0.0182
833.0	0.0181
832.0	0.0180
831.0	0.0181
830.0	0.0182
829.0	0.0182
828.0	0.0182
827.0	0.0184
826.0	0.0187
825.0	0.0189
824.0	0.0189
823.0	0.0189
822.0	0.0190
821.0	0.0191
820.0	0.0191
819.0	0.0191
818.0	0.0190
817.0	0.0189
816.0	0.0185
815.0	0.0184
814.0	0.0184
813.0	0.0183
812.0	0.0181
811.0	0.0180
810.0	0.0180
809.0	0.0181
808.0	0.0181
807.0	0.0181
806.0	0.0183
805.0	0.0185
804.0	0.0185
803.0	0.0187
802.0	0.0191
801.0	0.0194
800.0	0.0194
799.0	0.0196
798.0	0.0199
797.0	0.0200
796.0	0.0200
795.0	0.0200
794.0	0.0200
793.0	0.0200
792.0	0.0200
791.0	0.0199
790.0	0.0196
789.0	0.0195
788.0	0.0195
787.0	0.0194
786.0	0.0194
785.0	0.0192
784.0	0.0191
783.0	0.0191
782.0	0.0191
781.0	0.0191
780.0	0.0191
779.0	0.0190
778.0	0.0189
777.0	0.0189
776.0	0.0189
775.0	0.0187
774.0	0.0185
773.0	0.0184
772.0	0.0183
771.0	0.0182
770.0	0.0181
769.0	0.0182
768.0	0.0182
767.0	0.0181
766.0	0.0181
765.0	0.0181
764.0	0.0181
763.0	0.0180
762.0	0.0181
761.0	0.0181
760.0	0.0181
759.0	0.0182
758.0	0.0182
757.0	0.0182
756.0	0.0182
755.0	0.0182
754.0	0.0182
753.0	0.0183
752.0	0.0184
751.0	0.0183
750.0	0.0182
749.0	0.0182
748.0	0.0181
747.0	0.0180
746.0	0.0176
745.0	0.0171
744.0	0.0167
743.0	0.0166
742.0	0.0164
741.0	0.0164
740.0	0.0166
739.0	0.0167
738.0	0.0172
737.0	0.0179
736.0	0.0186
735.0	0.0194
734.0	0.0201
733.0	0.0210
732.0	0.0219
731.0	0.0224
730.0	0.0227
729.0	0.0229
728.0	0.0229
727.0	0.0229
726.0	0.0226
725.0	0.0224
724.0	0.0222
723.0	0.0220
722.0	0.0217
721.0	0.0215
720.0	0.0214
719.0	0.0212
718.0	0.0211
717.0	0.0210
716.0	0.0209
715.0	0.0209
714.0	0.0209
713.0	0.0209
712.0	0.0209
711.0	0.0209
710.0	0.0209
709.0	0.0209
708.0	0.0209
707.0	0.0209
706.0	0.0209
705.0	0.0209
704.0	0.0209
703.0	0.0209
702.0	0.0210
701.0	0.0210
700.0	0.0210
699.0	0.0210
698.0	0.0210
697.0	0.0210
696.0	0.0210
695.0	0.0210
694.0	0.0209
693.0	0.0209
692.0	0.0210
691.0	0.0210
690.0	0.0210
689.0	0.0209
688.0	0.0209
687.0	0.0209
686.0	0.0209
685.0	0.0209
684.0	0.0209
683.0	0.0209
682.0	0.0209
681.0	0.0209
680.0	0.0209
679.0	0.0209
678.0	0.0209
677.0	0.0209
676.0	0.0209
675.0	0.0209
674.0	0.0209
673.0	0.0209
672.0	0.0209
671.0	0.0209
670.0	0.0209
669.0	0.0209
668.0	0.0209
667.0	0.0209
666.0	0.0209
665.0	0.0209
664.0	0.0209
663.0	0.0209
662.0	0.0209
661.0	0.0209
660.0	0.0209
659.0	0.0209
658.0	0.0209
657.0	0.0207
656.0	0.0207
655.0	0.0206
654.0	0.0205
653.0	0.0205
652.0	0.0205
651.0	0.0205
650.0	0.0205
649.0	0.0205
648.0	0.0206
647.0	0.0209
646.0	0.0209
645.0	0.0206
644.0	0.0205
643.0	0.0205
642.0	0.0205
641.0	0.0205
640.0	0.0205
639.0	0.0205
638.0	0.0204
637.0	0.0203
636.0	0.0203
635.0	0.0203
634.0	0.0202
633.0	0.0203
632.0	0.0203
631.0	0.0203
630.0	0.0203
629.0	0.0203
628.0	0.0203
627.0	0.0203
626.0	0.0204
625.0	0.0206
624.0	0.0207
623.0	0.0207
622.0	0.0209
621.0	0.0209
620.0	0.0209
619.0	0.0209
618.0	0.0209
617.0	0.0209
616.0	0.0209
615.0	0.0206
614.0	0.0205
613.0	0.0205
612.0	0.0205
611.0	0.0205
610.0	0.0205
609.0	0.0205
608.0	0.0205
607.0	0.0205
606.0	0.0205
605.0	0.0205
604.0	0.0205
603.0	0.0204
602.0	0.0195
601.0	0.0180
600.0	0.0173
599.0	0.0173
598.0	0.0173
597.0	0.0173
596.0	0.0171
595.0	0.0170
594.0	0.0170
593.0	0.0170
592.0	0.0170
591.0	0.0170
590.0	0.0170
589.0	0.0170
588.0	0.0169
587.0	0.0169
586.0	0.0169
585.0	0.0167
584.0	0.0167
583.0	0.0167
582.0	0.0167
581.0	0.0169
580.0	0.0169
579.0	0.0169
578.0	0.0170
577.0	0.0170
576.0	0.0170
575.0	0.0170
574.0	0.0170
573.0	0.0170
572.0	0.0170
571.0	0.0171
570.0	0.0171
569.0	0.0170
568.0	0.0170
567.0	0.0171
566.0	0.0173
565.0	0.0173
564.0	0.0174
563.0	0.0176
562.0	0.0177
561.0	0.0180
560.0	0.0180
559.0	0.0181
558.0	0.0183
557.0	0.0185
556.0	0.0186
555.0	0.0189
554.0	0.0192
553.0	0.0194
552.0	0.0194
551.0	0.0195
550.0	0.0197
549.0	0.0202
548.0	0.0204
547.0	0.0206
546.0	0.0209
545.0	0.0209
544.0	0.0210
543.0	0.0211
542.0	0.0211
541.0	0.0211
540.0	0.0212
539.0	0.0213
538.0	0.0212
537.0	0.0211
536.0	0.0211
535.0	0.0210
534.0	0.0209
533.0	0.0209
532.0	0.0206
531.0	0.0205
530.0	0.0203
529.0	0.0200
528.0	0.0197
527.0	0.0195
526.0	0.0194
525.0	0.0192
524.0	0.0189
523.0	0.0186
522.0	0.0185
521.0	0.0185
520.0	0.0183
519.0	0.0181
518.0	0.0180
517.0	0.0180
516.0	0.0180
515.0	0.0177
514.0	0.0176
513.0	0.0176
512.0	0.0176
511.0	0.0174
510.0	0.0173
509.0	0.0173
508.0	0.0173
507.0	0.0173
506.0	0.0173
505.0	0.0173
504.0	0.0173
503.0	0.0171
502.0	0.0170
501.0	0.0170
500.0	0.0167
499.0	0.0166
498.0	0.0164
497.0	0.0164
496.0	0.0164
495.0	0.0162
494.0	0.0161
493.0	0.0161
492.0	0.0160
491.0	0.0159
490.0	0.0159
489.0	0.0157
488.0	0.0156
487.0	0.0153
486.0	0.0152
485.0	0.0150
484.0	0.0149
483.0	0.0149
482.0	0.0148
481.0	0.0147
480.0	0.0147
479.0	0.0144
478.0	0.0143
477.0	0.0143
476.0	0.0143
475.0	0.0141
474.0	0.0140
473.0	0.0140
472.0	0.0140
471.0	0.0139
470.0	0.0138
469.0	0.0138
468.0	0.0138
467.0	0.0138
466.0	0.0138
465.0	0.0138
464.0	0.0137
463.0	0.0137
462.0	0.0136
461.0	0.0135
460.0	0.0135
459.0	0.0135
458.0	0.0135
457.0	0.0135
456.0	0.0131
455.0	0.0129
454.0	0.0128
453.0	0.0128
452.0	0.0128
451.0	0.0128
450.0	0.0128
449.0	0.0128
448.0	0.0127
447.0	0.0126
446.0	0.0126
445.0	0.0126
444.0	0.0126
443.0	0.0124
442.0	0.0122
441.0	0.0122
440.0	0.0122
439.0	0.0124
438.0	0.0125
437.0	0.0124
436.0	0.0122
435.0	0.0122
434.0	0.0122
433.0	0.0122
432.0	0.0122
431.0	0.0122
430.0	0.0122
429.0	0.0122
428.0	0.0120
427.0	0.0119
426.0	0.0119
425.0	0.0118
424.0	0.0118
423.0	0.0119
422.0	0.0119
421.0	0.0118
420.0	0.0117
419.0	0.0117
418.0	0.0117
417.0	0.0117
416.0	0.0118
415.0	0.0118
414.0	0.0116
413.0	0.0115
412.0	0.0117
411.0	0.0117
410.0	0.0115
409.0	0.0114
408.0	0.0114
407.0	0.0115
406.0	0.0116
405.0	0.0115
404.0	0.0114
403.0	0.0114
402.0	0.0114
401.0	0.0114
400.0	0.0114
399.0	0.0114
398.0	0.0114
397.0	0.0113
396.0	0.0113
395.0	0.0113
394.0	0.0114
393.0	0.0114
392.0	0.0113
391.0	0.0114
390.0	0.0114
389.0	0.0110
388.0	0.0110
387.0	0.0110
386.0	0.0110
385.0	0.0110
384.0	0.0112
383.0	0.0113
382.0	0.0112
381.0	0.0109
380.0	0.0101
379.0	0.0099
378.0	0.0103
377.0	0.0106
376.0	0.0106
375.0	0.0104
374.0	0.0104
373.0	0.0102
372.0	0.0094
371.0	0.0105
370.0	0.0140
369.0	0.0157
368.0	0.0156
367.0	0.0157
366.0	0.0160
365.0	0.0161
364.0	0.0163
363.0	0.0166
362.0	0.0166
361.0	0.0171
360.0	0.0176
359.0	0.0180
358.0	0.0182
357.0	0.0187
356.0	0.0192
355.0	0.0197
354.0	0.0205
353.0	0.0214
352.0	0.0224
351.0	0.0234
350.0	0.0243
349.0	0.0254
348.0	0.0267
347.0	0.0277
346.0	0.0286
345.0	0.0297
344.0	0.0308
343.0	0.0317
342.0	0.0325
341.0	0.0332
340.0	0.0340
339.0	0.0348
338.0	0.0352
337.0	0.0352
336.0	0.0355
335.0	0.0358
334.0	0.0361
333.0	0.0361
332.0	0.0363
331.0	0.0363
330.0	0.0360
329.0	0.0358
328.0	0.0358
327.0	0.0356
326.0	0.0350
325.0	0.0344
324.0	0.0340
323.0	0.0337
322.0	0.0332
321.0	0.0327
320.0	0.0324
319.0	0.0319
318.0	0.0314
317.0	0.0310
316.0	0.0308
315.0	0.0306
314.0	0.0302
313.0	0.0298
312.0	0.0298
311.0	0.0298
310.0	0.0298
309.0	0.0302
308.0	0.0305
307.0	0.0309
306.0	0.0314
305.0	0.0321
304.0	0.0328
303.0	0.0337
302.0	0.0348
301.0	0.0361
300.0	0.0373
299.0	0.0383
298.0	0.0397
297.0	0.0412
296.0	0.0429
295.0	0.0445
294.0	0.0464
293.0	0.0482
292.0	0.0499
291.0	0.0523
290.0	0.0551
289.0	0.0581
288.0	0.0615
287.0	0.0658
286.0	0.0710
285.0	0.0768
284.0	0.0833
283.0	0.0908
282.0	0.0991
281.0	0.1084
280.0	0.1186
279.0	0.1292
278.0	0.1402
277.0	0.1519
276.0	0.1642
275.0	0.1770
274.0	0.1906
273.0	0.2048
272.0	0.2197
271.0	0.2352
270.0	0.2507
269.0	0.2662
268.0	0.2817
267.0	0.2971
266.0	0.3118
265.0	0.3259
264.0	0.3398
263.0	0.3532
262.0	0.3663
261.0	0.3791
260.0	0.3912
259.0	0.4025
258.0	0.4138
257.0	0.4246
256.0	0.4355
255.0	0.4459
254.0	0.4564
253.0	0.4678
252.0	0.4800
251.0	0.4951
250.0	0.5140
249.0	0.5397
248.0	0.5745
247.0	0.6229
246.0	0.6891
245.0	0.7804
244.0	0.9031
243.0	1.0660
242.0	1.2798
241.0	1.5513
240.0	1.8729
239.0	2.2007
238.0	2.4685
237.0	2.5686
236.0	2.6198
235.0	2.5686
234.0	2.5686
233.0	2.5376
232.0	2.4318
231.0	2.3372
230.0	2.2007
229.0	2.0315
228.0	1.8210
227.0	1.5702
226.0	1.2882
225.0	0.9830
224.0	0.6855
223.0	0.4271
222.0	0.2461
221.0	0.1376
220.0	0.0870
219.0	0.0748
218.0	0.0570
217.0	0.0402
216.0	0.0431
215.0	0.0484
214.0	0.0599
213.0	0.0749
212.0	0.0787
211.0	0.0841
210.0	0.0785
209.0	0.0593
208.0	0.0649
207.0	0.0835
206.0	0.0806
205.0	0.0704
204.0	0.0737
203.0	0.0763
202.0	0.0626
201.0	0.0402
200.0	0.0179
